# Export File Created with QBlade CE v2.0.8.6_beta windows on 08.04.2025 at 09:49:54
CLARK_Y_AIRFOIL_Re1.000_M0.00_N9.0 360 M	CLARK_Y_AIRFOIL_Re1.000_M0.00_N9.0
Angle of Attack [deg]	Drag Coefficient Cd [-]	Angle of Attack [deg]	Drag Coefficient Cd [-]
-1.8000000e+02	6.0000229e-03	-4.0000000e+00	8.8499999e-03
-1.7900000e+02	6.5219812e-03	-3.5000000e+00	8.5199997e-03
-1.7800000e+02	8.0861542e-03	-3.0000000e+00	8.2799997e-03
-1.7700000e+02	1.0689042e-02	-2.5000000e+00	8.0899997e-03
-1.7600000e+02	1.4325882e-02	-2.0000000e+00	7.8800004e-03
-1.7500000e+02	1.8990666e-02	-1.5000000e+00	7.7000000e-03
-1.7400000e+02	2.4676137e-02	-1.0000000e+00	7.2699999e-03
-1.7300000e+02	3.1373817e-02	-5.0000000e-01	6.8799998e-03
-1.7200000e+02	3.9074007e-02	0.0000000e+00	6.6300002e-03
-1.7100000e+02	4.7765810e-02	5.0000000e-01	6.1100000e-03
-1.7000000e+02	5.7437140e-02	1.0000000e+00	5.5200001e-03
-1.6900000e+02	6.8074748e-02	1.5000000e+00	5.5600000e-03
-1.6800000e+02	7.9664223e-02	2.0000000e+00	5.8400002e-03
-1.6700000e+02	9.2190050e-02	2.5000000e+00	6.1100000e-03
-1.6600000e+02	1.0563558e-01	3.0000000e+00	6.4699999e-03
-1.6500000e+02	1.1998308e-01	3.5000000e+00	7.0900000e-03
-1.6400000e+02	1.3521379e-01	4.0000000e+00	7.5800000e-03
-1.6300000e+02	1.5130787e-01	4.5000000e+00	7.9800002e-03
-1.6200000e+02	1.6824448e-01	5.0000000e+00	8.3400002e-03
-1.6100000e+02	1.8600182e-01	6.0000000e+00	9.0500005e-03
-1.6000000e+02	2.0455712e-01	6.5000000e+00	9.4799995e-03
-1.5900000e+02	2.2388670e-01	7.0000000e+00	9.9499999e-03
-1.5800000e+02	2.4396594e-01	7.5000000e+00	1.0690000e-02
-1.5700000e+02	2.6476941e-01	8.0000000e+00	1.1950000e-02
-1.5600000e+02	2.8627080e-01	8.5000000e+00	1.3040000e-02
-1.5500000e+02	3.0844307e-01	9.0000000e+00	1.3900000e-02
-1.5400000e+02	3.3125836e-01	9.5000000e+00	1.5160000e-02
-1.5300000e+02	3.5468811e-01	1.0000000e+01	1.7080000e-02
-1.5200000e+02	3.7870303e-01	1.0500000e+01	1.8300001e-02
-1.5100000e+02	4.0327320e-01	1.1000000e+01	1.9680001e-02
-1.5000000e+02	4.2836809e-01	1.1500000e+01	2.1140000e-02
-1.4900000e+02	4.5395660e-01	1.2000000e+01	2.2940001e-02
-1.4800000e+02	4.8000705e-01	1.2500000e+01	2.5160000e-02
-1.4700000e+02	5.0648725e-01	1.3000000e+01	2.8330000e-02
-1.4600000e+02	5.3336453e-01	1.3500000e+01	3.2960001e-02
-1.4500000e+02	5.6060594e-01	1.4000000e+01	3.6339998e-02
-1.4400000e+02	5.8817792e-01	1.4500000e+01	4.0460002e-02
-1.4300000e+02	6.1604673e-01	1.5000000e+01	4.5440000e-02
-1.4200000e+02	6.4417821e-01	1.5500000e+01	5.1369999e-02
-1.4100000e+02	6.7253810e-01	1.6000000e+01	5.8460001e-02
-1.4000000e+02	7.0109171e-01	1.6500000e+01	6.6689998e-02
-1.3900000e+02	7.2980428e-01	1.7000000e+01	7.6010004e-02
-1.3800000e+02	7.5864089e-01	1.7500000e+01	8.6319998e-02
-1.3700000e+02	7.8756660e-01	1.8000000e+01	9.7379997e-02
-1.3600000e+02	8.1654620e-01	1.8500000e+01	1.0887000e-01
-1.3500000e+02	8.4554476e-01	1.9000000e+01	1.2054000e-01
-1.3400000e+02	8.7452704e-01	1.9500000e+01	1.3197000e-01
-1.3300000e+02	9.0345818e-01	2.0000000e+01	1.4305000e-01
-1.3200000e+02	9.3230319e-01	END	END
-1.3100000e+02	9.6102732e-01	END	END
-1.3000000e+02	9.8959601e-01	END	END
-1.2900000e+02	1.0179750e+00	END	END
-1.2800000e+02	1.0461301e+00	END	END
-1.2700000e+02	1.0740274e+00	END	END
-1.2600000e+02	1.1016338e+00	END	END
-1.2500000e+02	1.1289160e+00	END	END
-1.2400000e+02	1.1558416e+00	END	END
-1.2300000e+02	1.1823782e+00	END	END
-1.2200000e+02	1.2084942e+00	END	END
-1.2100000e+02	1.2341584e+00	END	END
-1.2000000e+02	1.2593403e+00	END	END
-1.1900000e+02	1.2840098e+00	END	END
-1.1800000e+02	1.3081377e+00	END	END
-1.1700000e+02	1.3316952e+00	END	END
-1.1600000e+02	1.3546544e+00	END	END
-1.1500000e+02	1.3769879e+00	END	END
-1.1400000e+02	1.3986694e+00	END	END
-1.1300000e+02	1.4196730e+00	END	END
-1.1200000e+02	1.4399738e+00	END	END
-1.1100000e+02	1.4595480e+00	END	END
-1.1000000e+02	1.4783722e+00	END	END
-1.0900000e+02	1.4964242e+00	END	END
-1.0800000e+02	1.5136827e+00	END	END
-1.0700000e+02	1.5301273e+00	END	END
-1.0600000e+02	1.5457385e+00	END	END
-1.0500000e+02	1.5604979e+00	END	END
-1.0400000e+02	1.5743881e+00	END	END
-1.0300000e+02	1.5873928e+00	END	END
-1.0200000e+02	1.5994965e+00	END	END
-1.0100000e+02	1.6106849e+00	END	END
-1.0000000e+02	1.6209450e+00	END	END
-9.9000000e+01	1.6302645e+00	END	END
-9.8000000e+01	1.6386327e+00	END	END
-9.7000000e+01	1.6460395e+00	END	END
-9.6000000e+01	1.6524763e+00	END	END
-9.5000000e+01	1.6579354e+00	END	END
-9.4000000e+01	1.6624105e+00	END	END
-9.3000000e+01	1.6658962e+00	END	END
-9.2000000e+01	1.6683885e+00	END	END
-9.1000000e+01	1.6698844e+00	END	END
-9.0000000e+01	1.6703821e+00	END	END
-8.9000000e+01	1.6698812e+00	END	END
-8.8000000e+01	1.6683822e+00	END	END
-8.7000000e+01	1.6658866e+00	END	END
-8.6000000e+01	1.6623977e+00	END	END
-8.5000000e+01	1.6579194e+00	END	END
-8.4000000e+01	1.6524570e+00	END	END
-8.3000000e+01	1.6460170e+00	END	END
-8.2000000e+01	1.6386067e+00	END	END
-8.1000000e+01	1.6302351e+00	END	END
-8.0000000e+01	1.6209120e+00	END	END
-7.9000000e+01	1.6106483e+00	END	END
-7.8000000e+01	1.5994560e+00	END	END
-7.7000000e+01	1.5873485e+00	END	END
-7.6000000e+01	1.5743397e+00	END	END
-7.5000000e+01	1.5604454e+00	END	END
-7.4000000e+01	1.5456817e+00	END	END
-7.3000000e+01	1.5300660e+00	END	END
-7.2000000e+01	1.5136168e+00	END	END
-7.1000000e+01	1.4963534e+00	END	END
-7.0000000e+01	1.4782963e+00	END	END
-6.9000000e+01	1.4594667e+00	END	END
-6.8000000e+01	1.4398868e+00	END	END
-6.7000000e+01	1.4195800e+00	END	END
-6.6000000e+01	1.3985702e+00	END	END
-6.5000000e+01	1.3768821e+00	END	END
-6.4000000e+01	1.3545415e+00	END	END
-6.3000000e+01	1.3315750e+00	END	END
-6.2000000e+01	1.3080096e+00	END	END
-6.1000000e+01	1.2838733e+00	END	END
-6.0000000e+01	1.2591949e+00	END	END
-5.9000000e+01	1.2340034e+00	END	END
-5.8000000e+01	1.2083290e+00	END	END
-5.7000000e+01	1.1822021e+00	END	END
-5.6000000e+01	1.1556538e+00	END	END
-5.5000000e+01	1.1287156e+00	END	END
-5.4000000e+01	1.1014198e+00	END	END
-5.3000000e+01	1.0737988e+00	END	END
-5.2000000e+01	1.0458854e+00	END	END
-5.1000000e+01	1.0177132e+00	END	END
-5.0000000e+01	9.8931551e-01	END	END
-4.9000000e+01	9.6072644e-01	END	END
-4.8000000e+01	9.3198007e-01	END	END
-4.7000000e+01	9.0311068e-01	END	END
-4.6000000e+01	8.7415284e-01	END	END
-4.5000000e+01	8.4514111e-01	END	END
-4.4000000e+01	8.1611013e-01	END	END
-4.3000000e+01	7.8709453e-01	END	END
-4.2000000e+01	7.5812894e-01	END	END
-4.1000000e+01	7.2924781e-01	END	END
-4.0000000e+01	7.0048547e-01	END	END
-3.9000000e+01	6.7187601e-01	END	END
-3.8000000e+01	6.4345318e-01	END	END
-3.7000000e+01	6.1525035e-01	END	END
-3.6000000e+01	5.8730036e-01	END	END
-3.5000000e+01	5.5963552e-01	END	END
-3.4000000e+01	5.3228730e-01	END	END
-3.3000000e+01	5.0528646e-01	END	END
-3.2000000e+01	4.7866234e-01	END	END
-3.1000000e+01	4.5244315e-01	END	END
-3.0000000e+01	4.2665520e-01	END	END
-2.9000000e+01	4.0132260e-01	END	END
-2.8000000e+01	3.7646651e-01	END	END
-2.7000000e+01	3.5210425e-01	END	END
-2.6000000e+01	3.2824779e-01	END	END
-2.5000000e+01	3.0490178e-01	END	END
-2.4000000e+01	2.8206047e-01	END	END
-2.3000000e+01	2.5970304e-01	END	END
-2.2000000e+01	2.3778641e-01	END	END
-2.1000000e+01	2.1623406e-01	END	END
-2.0000000e+01	1.9491903e-01	END	END
-1.9000000e+01	1.7363919e-01	END	END
-1.8000000e+01	1.5208642e-01	END	END
-1.7000000e+01	1.2982833e-01	END	END
-1.6000000e+01	1.0637800e-01	END	END
-1.5000000e+01	8.1566654e-02	END	END
-1.4000000e+01	5.6533184e-02	END	END
-1.3000000e+01	3.4802664e-02	END	END
-1.2000000e+01	2.0658121e-02	END	END
-1.1000000e+01	1.4586154e-02	END	END
-1.0000000e+01	1.3068210e-02	END	END
-9.0000000e+00	1.2856713e-02	END	END
-8.0000000e+00	1.2761436e-02	END	END
-7.0000000e+00	1.2666257e-02	END	END
-6.0000000e+00	1.2571077e-02	END	END
-5.0000000e+00	1.2475898e-02	END	END
-4.0000000e+00	8.8499999e-03	END	END
-3.5000000e+00	8.5199997e-03	END	END
-3.0000000e+00	8.2799997e-03	END	END
-2.5000000e+00	8.0899997e-03	END	END
-2.0000000e+00	7.8800004e-03	END	END
-1.5000000e+00	7.7000000e-03	END	END
-1.0000000e+00	7.2699999e-03	END	END
-5.0000000e-01	6.8799998e-03	END	END
0.0000000e+00	6.6300002e-03	END	END
5.0000000e-01	6.1100000e-03	END	END
1.0000000e+00	5.5200001e-03	END	END
1.5000000e+00	5.5600000e-03	END	END
2.0000000e+00	5.8400002e-03	END	END
2.5000000e+00	6.1100000e-03	END	END
3.0000000e+00	6.4699999e-03	END	END
3.5000000e+00	7.0900000e-03	END	END
4.0000000e+00	7.5800000e-03	END	END
4.5000000e+00	7.9800002e-03	END	END
5.0000000e+00	8.3400002e-03	END	END
6.0000000e+00	9.0500005e-03	END	END
6.5000000e+00	9.4799995e-03	END	END
7.0000000e+00	9.9499999e-03	END	END
7.5000000e+00	1.0690000e-02	END	END
8.0000000e+00	1.1950000e-02	END	END
8.5000000e+00	1.3040000e-02	END	END
9.0000000e+00	1.3900000e-02	END	END
9.5000000e+00	1.5160000e-02	END	END
1.0000000e+01	1.7080000e-02	END	END
1.0500000e+01	1.8300001e-02	END	END
1.1000000e+01	1.9680001e-02	END	END
1.1500000e+01	2.1140000e-02	END	END
1.2000000e+01	2.2940001e-02	END	END
1.2500000e+01	2.5160000e-02	END	END
1.3000000e+01	2.8330000e-02	END	END
1.3500000e+01	3.2960001e-02	END	END
1.4000000e+01	3.6339998e-02	END	END
1.4500000e+01	4.0460002e-02	END	END
1.5000000e+01	4.5440000e-02	END	END
1.5500000e+01	5.1369999e-02	END	END
1.6000000e+01	5.8460001e-02	END	END
1.6500000e+01	6.6689998e-02	END	END
1.7000000e+01	7.6010004e-02	END	END
1.7500000e+01	8.6319998e-02	END	END
1.8000000e+01	9.7379997e-02	END	END
1.8500000e+01	1.0887000e-01	END	END
1.9000000e+01	1.2054000e-01	END	END
1.9500000e+01	1.3197000e-01	END	END
2.0000000e+01	1.4305000e-01	END	END
2.1000000e+01	1.5000087e-01	END	END
2.2000000e+01	1.7150982e-01	END	END
2.3000000e+01	1.9424734e-01	END	END
2.4000000e+01	2.1809648e-01	END	END
2.5000000e+01	2.4294862e-01	END	END
2.6000000e+01	2.6870474e-01	END	END
2.7000000e+01	2.9527563e-01	END	END
2.8000000e+01	3.2258138e-01	END	END
2.9000000e+01	3.5055059e-01	END	END
3.0000000e+01	3.7911925e-01	END	END
3.1000000e+01	4.0822962e-01	END	END
3.2000000e+01	4.3782917e-01	END	END
3.3000000e+01	4.6786967e-01	END	END
3.4000000e+01	4.9830619e-01	END	END
3.5000000e+01	5.2909654e-01	END	END
3.6000000e+01	5.6020063e-01	END	END
3.7000000e+01	5.9157974e-01	END	END
3.8000000e+01	6.2319642e-01	END	END
3.9000000e+01	6.5501404e-01	END	END
4.0000000e+01	6.8699652e-01	END	END
4.1000000e+01	7.1910822e-01	END	END
4.2000000e+01	7.5131363e-01	END	END
4.3000000e+01	7.8357744e-01	END	END
4.4000000e+01	8.1586438e-01	END	END
4.5000000e+01	8.4813923e-01	END	END
4.6000000e+01	8.8036668e-01	END	END
4.7000000e+01	9.1251153e-01	END	END
4.8000000e+01	9.4453847e-01	END	END
4.9000000e+01	9.7641218e-01	END	END
5.0000000e+01	1.0080975e+00	END	END
5.1000000e+01	1.0395591e+00	END	END
5.2000000e+01	1.0707620e+00	END	END
5.3000000e+01	1.1016712e+00	END	END
5.4000000e+01	1.1322519e+00	END	END
5.5000000e+01	1.1624695e+00	END	END
5.6000000e+01	1.1922898e+00	END	END
5.7000000e+01	1.2216787e+00	END	END
5.8000000e+01	1.2506028e+00	END	END
5.9000000e+01	1.2790288e+00	END	END
6.0000000e+01	1.3069239e+00	END	END
6.1000000e+01	1.3342558e+00	END	END
6.2000000e+01	1.3609930e+00	END	END
6.3000000e+01	1.3871045e+00	END	END
6.4000000e+01	1.4125597e+00	END	END
6.5000000e+01	1.4373291e+00	END	END
6.6000000e+01	1.4613835e+00	END	END
6.7000000e+01	1.4846947e+00	END	END
6.8000000e+01	1.5072355e+00	END	END
6.9000000e+01	1.5289794e+00	END	END
7.0000000e+01	1.5499007e+00	END	END
7.1000000e+01	1.5699745e+00	END	END
7.2000000e+01	1.5891776e+00	END	END
7.3000000e+01	1.6074870e+00	END	END
7.4000000e+01	1.6248811e+00	END	END
7.5000000e+01	1.6413394e+00	END	END
7.6000000e+01	1.6568426e+00	END	END
7.7000000e+01	1.6713721e+00	END	END
7.8000000e+01	1.6849109e+00	END	END
7.9000000e+01	1.6974431e+00	END	END
8.0000000e+01	1.7089540e+00	END	END
8.1000000e+01	1.7194299e+00	END	END
8.2000000e+01	1.7288586e+00	END	END
8.3000000e+01	1.7372292e+00	END	END
8.4000000e+01	1.7445320e+00	END	END
8.5000000e+01	1.7507586e+00	END	END
8.6000000e+01	1.7559021e+00	END	END
8.7000000e+01	1.7599564e+00	END	END
8.8000000e+01	1.7629173e+00	END	END
8.9000000e+01	1.7647817e+00	END	END
9.0000000e+01	1.7655479e+00	END	END
9.1000000e+01	1.7652156e+00	END	END
9.2000000e+01	1.7637857e+00	END	END
9.3000000e+01	1.7612607e+00	END	END
9.4000000e+01	1.7576443e+00	END	END
9.5000000e+01	1.7529414e+00	END	END
9.6000000e+01	1.7471584e+00	END	END
9.7000000e+01	1.7403032e+00	END	END
9.8000000e+01	1.7323848e+00	END	END
9.9000000e+01	1.7234135e+00	END	END
1.0000000e+02	1.7134011e+00	END	END
1.0100000e+02	1.7023605e+00	END	END
1.0200000e+02	1.6903059e+00	END	END
1.0300000e+02	1.6772530e+00	END	END
1.0400000e+02	1.6632184e+00	END	END
1.0500000e+02	1.6482199e+00	END	END
1.0600000e+02	1.6322770e+00	END	END
1.0700000e+02	1.6154096e+00	END	END
1.0800000e+02	1.5976394e+00	END	END
1.0900000e+02	1.5789889e+00	END	END
1.1000000e+02	1.5594817e+00	END	END
1.1100000e+02	1.5391425e+00	END	END
1.1200000e+02	1.5179969e+00	END	END
1.1300000e+02	1.4960718e+00	END	END
1.1400000e+02	1.4733948e+00	END	END
1.1500000e+02	1.4499942e+00	END	END
1.1600000e+02	1.4258999e+00	END	END
1.1700000e+02	1.4011416e+00	END	END
1.1800000e+02	1.3757510e+00	END	END
1.1900000e+02	1.3497595e+00	END	END
1.2000000e+02	1.3231999e+00	END	END
1.2100000e+02	1.2961053e+00	END	END
1.2200000e+02	1.2685096e+00	END	END
1.2300000e+02	1.2404473e+00	END	END
1.2400000e+02	1.2119535e+00	END	END
1.2500000e+02	1.1830636e+00	END	END
1.2600000e+02	1.1538137e+00	END	END
1.2700000e+02	1.1242402e+00	END	END
1.2800000e+02	1.0943797e+00	END	END
1.2900000e+02	1.0642693e+00	END	END
1.3000000e+02	1.0339465e+00	END	END
1.3100000e+02	1.0034487e+00	END	END
1.3200000e+02	9.7281379e-01	END	END
1.3300000e+02	9.4207948e-01	END	END
1.3400000e+02	9.1128385e-01	END	END
1.3500000e+02	8.8046473e-01	END	END
1.3600000e+02	8.4966022e-01	END	END
1.3700000e+02	8.1890810e-01	END	END
1.3800000e+02	7.8824621e-01	END	END
1.3900000e+02	7.5771219e-01	END	END
1.4000000e+02	7.2734338e-01	END	END
1.4100000e+02	6.9717693e-01	END	END
1.4200000e+02	6.6724968e-01	END	END
1.4300000e+02	6.3759822e-01	END	END
1.4400000e+02	6.0825861e-01	END	END
1.4500000e+02	5.7926649e-01	END	END
1.4600000e+02	5.5065703e-01	END	END
1.4700000e+02	5.2246499e-01	END	END
1.4800000e+02	4.9472439e-01	END	END
1.4900000e+02	4.6746874e-01	END	END
1.5000000e+02	4.4073084e-01	END	END
1.5100000e+02	4.1454288e-01	END	END
1.5200000e+02	3.8893625e-01	END	END
1.5300000e+02	3.6394158e-01	END	END
1.5400000e+02	3.3958873e-01	END	END
1.5500000e+02	3.1590670e-01	END	END
1.5600000e+02	2.9292363e-01	END	END
1.5700000e+02	2.7066669e-01	END	END
1.5800000e+02	2.4916218e-01	END	END
1.5900000e+02	2.2843541e-01	END	END
1.6000000e+02	2.0851070e-01	END	END
1.6100000e+02	1.8941128e-01	END	END
1.6200000e+02	1.7115942e-01	END	END
1.6300000e+02	1.5377621e-01	END	END
1.6400000e+02	1.3728172e-01	END	END
1.6500000e+02	1.2169483e-01	END	END
1.6600000e+02	1.0703330e-01	END	END
1.6700000e+02	9.3313716e-02	END	END
1.6800000e+02	8.0551483e-02	END	END
1.6900000e+02	6.8760797e-02	END	END
1.7000000e+02	5.7954632e-02	END	END
1.7100000e+02	4.8144743e-02	END	END
1.7200000e+02	3.9341629e-02	END	END
1.7300000e+02	3.1554546e-02	END	END
1.7400000e+02	2.4791485e-02	END	END
1.7500000e+02	1.9059166e-02	END	END
1.7600000e+02	1.4363037e-02	END	END
1.7700000e+02	1.0707269e-02	END	END
1.7800000e+02	8.0947513e-03	END	END
1.7900000e+02	6.5270946e-03	END	END
1.8000000e+02	6.0046278e-03	END	END
