# Export File Created with QBlade CE v2.0.8.6_beta windows on 14.04.2025 at 14:01:09
E63__(4.25%)_Re0.250_M0.00_N9.0 360 M	E63__(4.25%)_Re0.250_M0.00_N9.0
Angle of Attack [deg]	Lift Coefficient Cl [-]	Angle of Attack [deg]	Lift Coefficient Cl [-]
-1.8000000e+02	-8.7264426e-02	-4.0000000e+00	-2.3029999e-01
-1.7900000e+02	1.1271726e-01	-3.5000000e+00	-1.4640000e-01
-1.7800000e+02	2.9061592e-01	-3.0000000e+00	-1.8500000e-02
-1.7700000e+02	4.0968037e-01	-2.5000000e+00	8.4100001e-02
-1.7600000e+02	4.4857484e-01	-2.0000000e+00	1.8709999e-01
-1.7500000e+02	4.2883310e-01	-1.5000000e+00	3.1240001e-01
-1.7400000e+02	3.8892809e-01	-1.0000000e+00	4.1400000e-01
-1.7300000e+02	3.5292777e-01	-5.0000000e-01	5.2410001e-01
-1.7200000e+02	3.2838961e-01	0.0000000e+00	6.1849999e-01
-1.7100000e+02	3.1497684e-01	5.0000000e-01	6.8330002e-01
-1.7000000e+02	3.1015694e-01	1.5000000e+00	8.2900000e-01
-1.6900000e+02	3.1138131e-01	2.0000000e+00	9.1149998e-01
-1.6800000e+02	3.1663427e-01	2.5000000e+00	1.0032001e+00
-1.6700000e+02	3.2444257e-01	3.0000000e+00	1.0990000e+00
-1.6600000e+02	3.3375829e-01	3.5000000e+00	1.1413000e+00
-1.6500000e+02	3.4384084e-01	4.0000000e+00	1.1742001e+00
-1.6400000e+02	3.5416555e-01	4.5000000e+00	1.2086999e+00
-1.6300000e+02	3.6435896e-01	5.0000000e+00	1.2376000e+00
-1.6200000e+02	3.7415376e-01	5.5000000e+00	1.2785000e+00
-1.6100000e+02	3.8335836e-01	6.5000000e+00	1.3622000e+00
-1.6000000e+02	3.9183584e-01	7.0000000e+00	1.3993000e+00
-1.5900000e+02	3.9948928e-01	7.5000000e+00	1.4270000e+00
-1.5800000e+02	4.0625173e-01	8.0000000e+00	1.4342000e+00
-1.5700000e+02	4.1207886e-01	8.5000000e+00	1.4200000e+00
-1.5600000e+02	4.1694382e-01	1.0500000e+01	1.2660000e+00
-1.5500000e+02	4.2083356e-01	1.6000000e+01	1.1892000e+00
-1.5400000e+02	4.2374581e-01	END	END
-1.5300000e+02	4.2568722e-01	END	END
-1.5200000e+02	4.2667148e-01	END	END
-1.5100000e+02	4.2671829e-01	END	END
-1.5000000e+02	4.2585227e-01	END	END
-1.4900000e+02	4.2410210e-01	END	END
-1.4800000e+02	4.2149997e-01	END	END
-1.4700000e+02	4.1808093e-01	END	END
-1.4600000e+02	4.1388243e-01	END	END
-1.4500000e+02	4.0894395e-01	END	END
-1.4400000e+02	4.0330666e-01	END	END
-1.4300000e+02	3.9701292e-01	END	END
-1.4200000e+02	3.9010617e-01	END	END
-1.4100000e+02	3.8263065e-01	END	END
-1.4000000e+02	3.7463096e-01	END	END
-1.3900000e+02	3.6615208e-01	END	END
-1.3800000e+02	3.5723892e-01	END	END
-1.3700000e+02	3.4793630e-01	END	END
-1.3600000e+02	3.3828866e-01	END	END
-1.3500000e+02	3.2833990e-01	END	END
-1.3400000e+02	3.1813315e-01	END	END
-1.3300000e+02	3.0771074e-01	END	END
-1.3200000e+02	2.9711393e-01	END	END
-1.3100000e+02	2.8638279e-01	END	END
-1.3000000e+02	2.7555618e-01	END	END
-1.2900000e+02	2.6467142e-01	END	END
-1.2800000e+02	2.5376439e-01	END	END
-1.2700000e+02	2.4286930e-01	END	END
-1.2600000e+02	2.3201862e-01	END	END
-1.2500000e+02	2.2124301e-01	END	END
-1.2400000e+02	2.1057124e-01	END	END
-1.2300000e+02	2.0003015e-01	END	END
-1.2200000e+02	1.8964455e-01	END	END
-1.2100000e+02	1.7943722e-01	END	END
-1.2000000e+02	1.6942883e-01	END	END
-1.1900000e+02	1.5963796e-01	END	END
-1.1800000e+02	1.5008107e-01	END	END
-1.1700000e+02	1.4077246e-01	END	END
-1.1600000e+02	1.3172431e-01	END	END
-1.1500000e+02	1.2294670e-01	END	END
-1.1400000e+02	1.1444757e-01	END	END
-1.1300000e+02	1.0623281e-01	END	END
-1.1200000e+02	9.8306283e-02	END	END
-1.1100000e+02	9.0036243e-02	END	END
-1.1000000e+02	8.2709827e-02	END	END
-1.0900000e+02	7.5670160e-02	END	END
-1.0800000e+02	6.8913557e-02	END	END
-1.0700000e+02	6.2434550e-02	END	END
-1.0600000e+02	5.6226030e-02	END	END
-1.0500000e+02	5.0279286e-02	END	END
-1.0400000e+02	4.4584118e-02	END	END
-1.0300000e+02	3.9128926e-02	END	END
-1.0200000e+02	3.3900812e-02	END	END
-1.0100000e+02	2.8885677e-02	END	END
-1.0000000e+02	2.4068337e-02	END	END
-9.9000000e+01	1.9432623e-02	END	END
-9.8000000e+01	1.4961497e-02	END	END
-9.7000000e+01	1.0637171e-02	END	END
-9.6000000e+01	6.4412137e-03	END	END
-9.5000000e+01	2.3546761e-03	END	END
-9.4000000e+01	-1.6417967e-03	END	END
-9.3000000e+01	-5.5678454e-03	END	END
-9.2000000e+01	-9.4432794e-03	END	END
-9.1000000e+01	-1.3287961e-02	END	END
-9.0000000e+01	-1.7121686e-02	END	END
-8.9000000e+01	-2.0964073e-02	END	END
-8.8000000e+01	-2.4834454e-02	END	END
-8.7000000e+01	-2.8751757e-02	END	END
-8.6000000e+01	-3.2734405e-02	END	END
-8.5000000e+01	-3.6800209e-02	END	END
-8.4000000e+01	-4.0966272e-02	END	END
-8.3000000e+01	-4.5248885e-02	END	END
-8.2000000e+01	-4.9663439e-02	END	END
-8.1000000e+01	-5.4224342e-02	END	END
-8.0000000e+01	-5.8944922e-02	END	END
-7.9000000e+01	-6.3837364e-02	END	END
-7.8000000e+01	-6.8912618e-02	END	END
-7.7000000e+01	-7.4180357e-02	END	END
-7.6000000e+01	-7.9648890e-02	END	END
-7.5000000e+01	-8.5325114e-02	END	END
-7.4000000e+01	-9.1214471e-02	END	END
-7.3000000e+01	-9.7320899e-02	END	END
-7.2000000e+01	-1.0364677e-01	END	END
-7.1000000e+01	-1.1019290e-01	END	END
-7.0000000e+01	-1.1695849e-01	END	END
-6.9000000e+01	-1.2394113e-01	END	END
-6.8000000e+01	-1.3113675e-01	END	END
-6.7000000e+01	-1.3853964e-01	END	END
-6.6000000e+01	-1.4614247e-01	END	END
-6.5000000e+01	-1.5393622e-01	END	END
-6.4000000e+01	-1.6191031e-01	END	END
-6.3000000e+01	-1.7005245e-01	END	END
-6.2000000e+01	-1.7834887e-01	END	END
-6.1000000e+01	-1.8678415e-01	END	END
-6.0000000e+01	-1.9534139e-01	END	END
-5.9000000e+01	-2.0400220e-01	END	END
-5.8000000e+01	-2.1274677e-01	END	END
-5.7000000e+01	-2.2155386e-01	END	END
-5.6000000e+01	-2.3040096e-01	END	END
-5.5000000e+01	-2.3926426e-01	END	END
-5.4000000e+01	-2.4811876e-01	END	END
-5.3000000e+01	-2.5693837e-01	END	END
-5.2000000e+01	-2.6569587e-01	END	END
-5.1000000e+01	-2.7436322e-01	END	END
-5.0000000e+01	-2.8291139e-01	END	END
-4.9000000e+01	-2.9131061e-01	END	END
-4.8000000e+01	-2.9953042e-01	END	END
-4.7000000e+01	-3.0753985e-01	END	END
-4.6000000e+01	-3.1530735e-01	END	END
-4.5000000e+01	-3.2280108e-01	END	END
-4.4000000e+01	-3.2998899e-01	END	END
-4.3000000e+01	-3.3683887e-01	END	END
-4.2000000e+01	-3.4331855e-01	END	END
-4.1000000e+01	-3.4939611e-01	END	END
-4.0000000e+01	-3.5503989e-01	END	END
-3.9000000e+01	-3.6021873e-01	END	END
-3.8000000e+01	-3.6490226e-01	END	END
-3.7000000e+01	-3.6906093e-01	END	END
-3.6000000e+01	-3.7266642e-01	END	END
-3.5000000e+01	-3.7569174e-01	END	END
-3.4000000e+01	-3.7811184e-01	END	END
-3.3000000e+01	-3.7990367e-01	END	END
-3.2000000e+01	-3.8104692e-01	END	END
-3.1000000e+01	-3.8152456e-01	END	END
-3.0000000e+01	-3.8132358e-01	END	END
-2.9000000e+01	-3.8043594e-01	END	END
-2.8000000e+01	-3.7886015e-01	END	END
-2.7000000e+01	-3.7660274e-01	END	END
-2.6000000e+01	-3.7368089e-01	END	END
-2.5000000e+01	-3.7012580e-01	END	END
-2.4000000e+01	-3.6598760e-01	END	END
-2.3000000e+01	-3.6134216e-01	END	END
-2.2000000e+01	-3.5630161e-01	END	END
-2.1000000e+01	-3.5102955e-01	END	END
-2.0000000e+01	-3.4576494e-01	END	END
-1.9000000e+01	-3.4085903e-01	END	END
-1.8000000e+01	-3.3683494e-01	END	END
-1.7000000e+01	-3.3448523e-01	END	END
-1.6000000e+01	-3.3503562e-01	END	END
-1.5000000e+01	-3.4042475e-01	END	END
-1.4000000e+01	-3.5378635e-01	END	END
-1.3000000e+01	-3.8026425e-01	END	END
-1.2000000e+01	-4.2826241e-01	END	END
-1.1000000e+01	-5.1068962e-01	END	END
-1.0000000e+01	-6.4293981e-01	END	END
-9.0000000e+00	-8.2563722e-01	END	END
-8.0000000e+00	-9.9837244e-01	END	END
-7.0000000e+00	-1.0338217e+00	END	END
-6.0000000e+00	-8.8770866e-01	END	END
-5.0000000e+00	-6.5036058e-01	END	END
-4.0000000e+00	-2.3029999e-01	END	END
-3.5000000e+00	-1.4640000e-01	END	END
-3.0000000e+00	-1.8500000e-02	END	END
-2.5000000e+00	8.4100001e-02	END	END
-2.0000000e+00	1.8709999e-01	END	END
-1.5000000e+00	3.1240001e-01	END	END
-1.0000000e+00	4.1400000e-01	END	END
-5.0000000e-01	5.2410001e-01	END	END
0.0000000e+00	6.1849999e-01	END	END
5.0000000e-01	6.8330002e-01	END	END
1.5000000e+00	8.2900000e-01	END	END
2.0000000e+00	9.1149998e-01	END	END
2.5000000e+00	1.0032001e+00	END	END
3.0000000e+00	1.0990000e+00	END	END
3.5000000e+00	1.1413000e+00	END	END
4.0000000e+00	1.1742001e+00	END	END
4.5000000e+00	1.2086999e+00	END	END
5.0000000e+00	1.2376000e+00	END	END
5.5000000e+00	1.2785000e+00	END	END
6.5000000e+00	1.3622000e+00	END	END
7.0000000e+00	1.3993000e+00	END	END
7.5000000e+00	1.4270000e+00	END	END
8.0000000e+00	1.4342000e+00	END	END
8.5000000e+00	1.4200000e+00	END	END
1.0500000e+01	1.2660000e+00	END	END
1.6000000e+01	1.1892000e+00	END	END
1.7000000e+01	8.0744576e-01	END	END
1.8000000e+01	8.2144600e-01	END	END
1.9000000e+01	8.4017795e-01	END	END
2.0000000e+01	8.6241233e-01	END	END
2.1000000e+01	8.8723451e-01	END	END
2.2000000e+01	9.1395313e-01	END	END
2.3000000e+01	9.4203639e-01	END	END
2.4000000e+01	9.7106767e-01	END	END
2.5000000e+01	1.0007144e+00	END	END
2.6000000e+01	1.0307057e+00	END	END
2.7000000e+01	1.0608172e+00	END	END
2.8000000e+01	1.0908593e+00	END	END
2.9000000e+01	1.1206688e+00	END	END
3.0000000e+01	1.1501033e+00	END	END
3.1000000e+01	1.1790364e+00	END	END
3.2000000e+01	1.2073543e+00	END	END
3.3000000e+01	1.2349539e+00	END	END
3.4000000e+01	1.2617401e+00	END	END
3.5000000e+01	1.2876250e+00	END	END
3.6000000e+01	1.3125263e+00	END	END
3.7000000e+01	1.3363674e+00	END	END
3.8000000e+01	1.3590755e+00	END	END
3.9000000e+01	1.3805823e+00	END	END
4.0000000e+01	1.4008229e+00	END	END
4.1000000e+01	1.4197359e+00	END	END
4.2000000e+01	1.4372630e+00	END	END
4.3000000e+01	1.4533492e+00	END	END
4.4000000e+01	1.4679425e+00	END	END
4.5000000e+01	1.4809933e+00	END	END
4.6000000e+01	1.4924557e+00	END	END
4.7000000e+01	1.5022861e+00	END	END
4.8000000e+01	1.5104442e+00	END	END
4.9000000e+01	1.5168923e+00	END	END
5.0000000e+01	1.5215958e+00	END	END
5.1000000e+01	1.5245231e+00	END	END
5.2000000e+01	1.5256457e+00	END	END
5.3000000e+01	1.5249380e+00	END	END
5.4000000e+01	1.5223774e+00	END	END
5.5000000e+01	1.5179448e+00	END	END
5.6000000e+01	1.5116240e+00	END	END
5.7000000e+01	1.5034022e+00	END	END
5.8000000e+01	1.4932698e+00	END	END
5.9000000e+01	1.4812205e+00	END	END
6.0000000e+01	1.4672513e+00	END	END
6.1000000e+01	1.4513627e+00	END	END
6.2000000e+01	1.4335585e+00	END	END
6.3000000e+01	1.4138458e+00	END	END
6.4000000e+01	1.3922353e+00	END	END
6.5000000e+01	1.3687412e+00	END	END
6.6000000e+01	1.3433808e+00	END	END
6.7000000e+01	1.3161752e+00	END	END
6.8000000e+01	1.2871488e+00	END	END
6.9000000e+01	1.2563293e+00	END	END
7.0000000e+01	1.2237480e+00	END	END
7.1000000e+01	1.1894392e+00	END	END
7.2000000e+01	1.1534411e+00	END	END
7.3000000e+01	1.1157947e+00	END	END
7.4000000e+01	1.0765444e+00	END	END
7.5000000e+01	1.0357378e+00	END	END
7.6000000e+01	9.9342573e-01	END	END
7.7000000e+01	9.4966191e-01	END	END
7.8000000e+01	9.0450317e-01	END	END
7.9000000e+01	8.5800910e-01	END	END
8.0000000e+01	8.1024235e-01	END	END
8.1000000e+01	7.6126802e-01	END	END
8.2000000e+01	7.1115398e-01	END	END
8.3000000e+01	6.5997064e-01	END	END
8.4000000e+01	6.0779071e-01	END	END
8.5000000e+01	5.5468923e-01	END	END
8.6000000e+01	5.0074339e-01	END	END
8.7000000e+01	4.4603246e-01	END	END
8.8000000e+01	3.9063746e-01	END	END
8.9000000e+01	3.3464125e-01	END	END
9.0000000e+01	2.7812824e-01	END	END
9.1000000e+01	2.2118424e-01	END	END
9.2000000e+01	1.6389643e-01	END	END
9.3000000e+01	1.0635301e-01	END	END
9.4000000e+01	4.8643179e-02	END	END
9.5000000e+01	-9.1431150e-03	END	END
9.6000000e+01	-6.6915318e-02	END	END
9.7000000e+01	-1.2458246e-01	END	END
9.8000000e+01	-1.8205334e-01	END	END
9.9000000e+01	-2.3923667e-01	END	END
1.0000000e+02	-2.9604131e-01	END	END
1.0100000e+02	-3.5237646e-01	END	END
1.0200000e+02	-4.0815181e-01	END	END
1.0300000e+02	-4.6327770e-01	END	END
1.0400000e+02	-5.1766539e-01	END	END
1.0500000e+02	-5.7122725e-01	END	END
1.0600000e+02	-6.2387681e-01	END	END
1.0700000e+02	-6.7552906e-01	END	END
1.0800000e+02	-7.2610080e-01	END	END
1.0900000e+02	-7.7642393e-01	END	END
1.1000000e+02	-8.2459843e-01	END	END
1.1100000e+02	-8.7145537e-01	END	END
1.1200000e+02	-9.1691983e-01	END	END
1.1300000e+02	-9.6091938e-01	END	END
1.1400000e+02	-1.0033844e+00	END	END
1.1500000e+02	-1.0442477e+00	END	END
1.1600000e+02	-1.0834458e+00	END	END
1.1700000e+02	-1.1209179e+00	END	END
1.1800000e+02	-1.1566066e+00	END	END
1.1900000e+02	-1.1904578e+00	END	END
1.2000000e+02	-1.2224214e+00	END	END
1.2100000e+02	-1.2524506e+00	END	END
1.2200000e+02	-1.2805027e+00	END	END
1.2300000e+02	-1.3065386e+00	END	END
1.2400000e+02	-1.3305234e+00	END	END
1.2500000e+02	-1.3524265e+00	END	END
1.2600000e+02	-1.3722212e+00	END	END
1.2700000e+02	-1.3898853e+00	END	END
1.2800000e+02	-1.4054006e+00	END	END
1.2900000e+02	-1.4187539e+00	END	END
1.3000000e+02	-1.4299356e+00	END	END
1.3100000e+02	-1.4389411e+00	END	END
1.3200000e+02	-1.4457705e+00	END	END
1.3300000e+02	-1.4504278e+00	END	END
1.3400000e+02	-1.4529219e+00	END	END
1.3500000e+02	-1.4532663e+00	END	END
1.3600000e+02	-1.4514786e+00	END	END
1.3700000e+02	-1.4475812e+00	END	END
1.3800000e+02	-1.4416010e+00	END	END
1.3900000e+02	-1.4335693e+00	END	END
1.4000000e+02	-1.4235218e+00	END	END
1.4100000e+02	-1.4114982e+00	END	END
1.4200000e+02	-1.3975434e+00	END	END
1.4300000e+02	-1.3817059e+00	END	END
1.4400000e+02	-1.3640387e+00	END	END
1.4500000e+02	-1.3445995e+00	END	END
1.4600000e+02	-1.3234499e+00	END	END
1.4700000e+02	-1.3006560e+00	END	END
1.4800000e+02	-1.2762885e+00	END	END
1.4900000e+02	-1.2504230e+00	END	END
1.5000000e+02	-1.2231395e+00	END	END
1.5100000e+02	-1.1945242e+00	END	END
1.5200000e+02	-1.1646684e+00	END	END
1.5300000e+02	-1.1336707e+00	END	END
1.5400000e+02	-1.1016371e+00	END	END
1.5500000e+02	-1.0686837e+00	END	END
1.5600000e+02	-1.0349380e+00	END	END
1.5700000e+02	-1.0005425e+00	END	END
1.5800000e+02	-9.6565992e-01	END	END
1.5900000e+02	-9.3047905e-01	END	END
1.6000000e+02	-8.9522547e-01	END	END
1.6100000e+02	-8.6017597e-01	END	END
1.6200000e+02	-8.2568043e-01	END	END
1.6300000e+02	-7.9219592e-01	END	END
1.6400000e+02	-7.6033813e-01	END	END
1.6500000e+02	-7.3096317e-01	END	END
1.6600000e+02	-7.0529521e-01	END	END
1.6700000e+02	-6.8512791e-01	END	END
1.6800000e+02	-6.7313027e-01	END	END
1.6900000e+02	-6.7327052e-01	END	END
1.7000000e+02	-6.9122928e-01	END	END
1.7100000e+02	-7.3412102e-01	END	END
1.7200000e+02	-8.0721104e-01	END	END
1.7300000e+02	-9.0281808e-01	END	END
1.7400000e+02	-9.8202455e-01	END	END
1.7500000e+02	-9.8105735e-01	END	END
1.7600000e+02	-8.7249148e-01	END	END
1.7700000e+02	-6.9406635e-01	END	END
1.7800000e+02	-4.9339944e-01	END	END
1.7900000e+02	-2.9033697e-01	END	END
1.8000000e+02	-8.7264426e-02	END	END
