CLARK_Y_AIRFOIL_Re0.045_M0.00_N9.0 360 M	
Angle of Attack [deg]	Lift Coefficient Cl [-]	Angle of Attack [deg]	Lift Coefficient Cl [-]
-1.8000000e+02	1.5140437e-03	-4.0000000e+00	-3.7869999e-01
-1.7900000e+02	1.6186093e-01	-3.5000000e+00	-3.3129999e-01
-1.7800000e+02	3.2218787e-01	-3.0000000e+00	-2.8290001e-01
-1.7700000e+02	4.8035091e-01	-2.5000000e+00	-2.3340000e-01
-1.7600000e+02	6.2143600e-01	-2.0000000e+00	-1.8269999e-01
-1.7500000e+02	7.1168685e-01	-1.5000000e+00	-1.3470000e-01
-1.7400000e+02	7.2342968e-01	-1.0000000e+00	-8.0100000e-02
-1.7300000e+02	6.7239845e-01	-5.0000000e-01	-4.6700001e-02
-1.7200000e+02	6.0263777e-01	0.0000000e+00	-6.8999999e-03
-1.7100000e+02	5.4482377e-01	5.0000000e-01	8.3600000e-02
-1.7000000e+02	5.0753713e-01	1.0000000e+00	1.9030000e-01
-1.6900000e+02	4.8846647e-01	1.5000000e+00	2.6679999e-01
-1.6800000e+02	4.8284680e-01	2.0000000e+00	3.4000000e-01
-1.6700000e+02	4.8649180e-01	2.5000000e+00	4.1080001e-01
-1.6600000e+02	4.9633753e-01	3.0000000e+00	4.7909999e-01
-1.6500000e+02	5.1026827e-01	3.5000000e+00	5.5140001e-01
-1.6400000e+02	5.2684295e-01	4.0000000e+00	6.1220002e-01
-1.6300000e+02	5.4507434e-01	4.5000000e+00	6.5149999e-01
-1.6200000e+02	5.6427628e-01	5.0000000e+00	7.0929998e-01
-1.6100000e+02	5.8396250e-01	5.5000000e+00	7.5029999e-01
-1.6000000e+02	6.0378122e-01	6.0000000e+00	7.5910002e-01
-1.5900000e+02	6.2347233e-01	6.5000000e+00	7.8520000e-01
-1.5800000e+02	6.4283955e-01	7.0000000e+00	8.1830001e-01
-1.5700000e+02	6.6173130e-01	7.5000000e+00	8.7419999e-01
-1.5600000e+02	6.8002856e-01	8.0000000e+00	8.6320001e-01
-1.5500000e+02	6.9763595e-01	8.5000000e+00	8.7709999e-01
-1.5400000e+02	7.1447581e-01	9.0000000e+00	1.1466000e+00
-1.5300000e+02	7.3048407e-01	9.5000000e+00	1.2067000e+00
-1.5200000e+02	7.4560714e-01	1.0000000e+01	1.2466000e+00
-1.5100000e+02	7.5979978e-01	1.0500000e+01	1.2106000e+00
-1.5000000e+02	7.7302349e-01	1.7500000e+01	9.2540002e-01
-1.4900000e+02	7.8524554e-01	1.8000000e+01	9.4639999e-01
-1.4800000e+02	7.9643780e-01	1.8500000e+01	9.4779998e-01
-1.4700000e+02	8.0657631e-01	1.9000000e+01	9.6869999e-01
-1.4600000e+02	8.1564063e-01	1.9500000e+01	6.5799999e-01
-1.4500000e+02	8.2361364e-01	2.0000000e+01	9.9059999e-01
-1.4400000e+02	8.3048105e-01		
-1.4300000e+02	8.3623135e-01		
-1.4200000e+02	8.4085542e-01		
-1.4100000e+02	8.4434652e-01		
-1.4000000e+02	8.4670013e-01		
-1.3900000e+02	8.4791392e-01		
-1.3800000e+02	8.4798741e-01		
-1.3700000e+02	8.4692228e-01		
-1.3600000e+02	8.4472197e-01		
-1.3500000e+02	8.4139174e-01		
-1.3400000e+02	8.3693862e-01		
-1.3300000e+02	8.3137143e-01		
-1.3200000e+02	8.2470053e-01		
-1.3100000e+02	8.1693804e-01		
-1.3000000e+02	8.0809742e-01		
-1.2900000e+02	7.9819393e-01		
-1.2800000e+02	7.8724402e-01		
-1.2700000e+02	7.7526575e-01		
-1.2600000e+02	7.6227850e-01		
-1.2500000e+02	7.4830294e-01		
-1.2400000e+02	7.3336101e-01		
-1.2300000e+02	7.1747601e-01		
-1.2200000e+02	7.0067221e-01		
-1.2100000e+02	6.8297517e-01		
-1.2000000e+02	6.6441149e-01		
-1.1900000e+02	6.4500868e-01		
-1.1800000e+02	6.2479544e-01		
-1.1700000e+02	6.0380113e-01		
-1.1600000e+02	5.8205622e-01		
-1.1500000e+02	5.5959189e-01		
-1.1400000e+02	5.3643996e-01		
-1.1300000e+02	5.1263314e-01		
-1.1200000e+02	4.8820475e-01		
-1.1100000e+02	4.6318862e-01		
-1.1000000e+02	4.3761921e-01		
-1.0900000e+02	4.1153142e-01		
-1.0800000e+02	3.8445032e-01		
-1.0700000e+02	3.5744572e-01		
-1.0600000e+02	3.3002898e-01		
-1.0500000e+02	3.0223650e-01		
-1.0400000e+02	2.7410489e-01		
-1.0300000e+02	2.4567094e-01		
-1.0200000e+02	2.1697155e-01		
-1.0100000e+02	1.8804365e-01		
-1.0000000e+02	1.5892425e-01		
-9.9000000e+01	1.2965031e-01		
-9.8000000e+01	1.0025869e-01		
-9.7000000e+01	7.0786148e-02		
-9.6000000e+01	4.1269243e-02		
-9.5000000e+01	1.1744341e-02		
-9.4000000e+01	-1.7752459e-02		
-9.3000000e+01	-4.7185365e-02		
-9.2000000e+01	-7.6518923e-02		
-9.1000000e+01	-1.0571808e-01		
-9.0000000e+01	-1.3474818e-01		
-8.9000000e+01	-1.6357507e-01		
-8.8000000e+01	-1.9216505e-01		
-8.7000000e+01	-2.2048499e-01		
-8.6000000e+01	-2.4850233e-01		
-8.5000000e+01	-2.7618507e-01		
-8.4000000e+01	-3.0350190e-01		
-8.3000000e+01	-3.3042216e-01		
-8.2000000e+01	-3.5691586e-01		
-8.1000000e+01	-3.8295373e-01		
-8.0000000e+01	-4.0850726e-01		
-7.9000000e+01	-4.3354872e-01		
-7.8000000e+01	-4.5805115e-01		
-7.7000000e+01	-4.8198843e-01		
-7.6000000e+01	-5.0533527e-01		
-7.5000000e+01	-5.2806717e-01		
-7.4000000e+01	-5.5016071e-01		
-7.3000000e+01	-5.7159305e-01		
-7.2000000e+01	-5.9234256e-01		
-7.1000000e+01	-6.1238831e-01		
-7.0000000e+01	-6.3171041e-01		
-6.9000000e+01	-6.5028989e-01		
-6.8000000e+01	-6.6810876e-01		
-6.7000000e+01	-6.8514991e-01		
-6.6000000e+01	-7.0139736e-01		
-6.5000000e+01	-7.1683598e-01		
-6.4000000e+01	-7.3145163e-01		
-6.3000000e+01	-7.4523121e-01		
-6.2000000e+01	-7.5816262e-01		
-6.1000000e+01	-7.7023470e-01		
-6.0000000e+01	-7.8143740e-01		
-5.9000000e+01	-7.9176158e-01		
-5.8000000e+01	-8.0119908e-01		
-5.7000000e+01	-8.0974281e-01		
-5.6000000e+01	-8.1738669e-01		
-5.5000000e+01	-8.2412565e-01		
-5.4000000e+01	-8.2995552e-01		
-5.3000000e+01	-8.3487326e-01		
-5.2000000e+01	-8.3887672e-01		
-5.1000000e+01	-8.4196490e-01		
-5.0000000e+01	-8.4413761e-01		
-4.9000000e+01	-8.4539580e-01		
-4.8000000e+01	-8.4574139e-01		
-4.7000000e+01	-8.4517717e-01		
-4.6000000e+01	-8.4370714e-01		
-4.5000000e+01	-8.4133619e-01		
-4.4000000e+01	-8.3807015e-01		
-4.3000000e+01	-8.3391607e-01		
-4.2000000e+01	-8.2888186e-01		
-4.1000000e+01	-8.2297659e-01		
-4.0000000e+01	-8.1621045e-01		
-3.9000000e+01	-8.0859458e-01		
-3.8000000e+01	-8.0014145e-01		
-3.7000000e+01	-7.9086477e-01		
-3.6000000e+01	-7.8077948e-01		
-3.5000000e+01	-7.6990199e-01		
-3.4000000e+01	-7.5825024e-01		
-3.3000000e+01	-7.4584389e-01		
-3.2000000e+01	-7.3270476e-01		
-3.1000000e+01	-7.1885669e-01		
-3.0000000e+01	-7.0432639e-01		
-2.9000000e+01	-6.8914366e-01		
-2.8000000e+01	-6.7334247e-01		
-2.7000000e+01	-6.5696150e-01		
-2.6000000e+01	-6.4004594e-01		
-2.5000000e+01	-6.2264884e-01		
-2.4000000e+01	-6.0483420e-01		
-2.3000000e+01	-5.8668017e-01		
-2.2000000e+01	-5.6828469e-01		
-2.1000000e+01	-5.4977262e-01		
-2.0000000e+01	-5.3130734e-01		
-1.9000000e+01	-5.1310748e-01		
-1.8000000e+01	-4.9547309e-01		
-1.7000000e+01	-4.7882587e-01		
-1.6000000e+01	-4.6377429e-01		
-1.5000000e+01	-4.5121863e-01		
-1.4000000e+01	-4.4252506e-01		
-1.3000000e+01	-4.3981433e-01		
-1.2000000e+01	-4.4643563e-01		
-1.1000000e+01	-4.6769002e-01		
-1.0000000e+01	-5.1168460e-01		
-9.0000000e+00	-5.8922452e-01		
-8.0000000e+00	-7.0832449e-01		
-7.0000000e+00	-8.5375947e-01		
-6.0000000e+00	-9.5852649e-01		
-5.0000000e+00	-9.3966806e-01		
-4.0000000e+00	-3.7869999e-01		
-3.5000000e+00	-3.3129999e-01		
-3.0000000e+00	-2.8290001e-01		
-2.5000000e+00	-2.3340000e-01		
-2.0000000e+00	-1.8269999e-01		
-1.5000000e+00	-1.3470000e-01		
-1.0000000e+00	-8.0100000e-02		
-5.0000000e-01	-4.6700001e-02		
0.0000000e+00	-6.8999999e-03		
5.0000000e-01	8.3600000e-02		
1.0000000e+00	1.9030000e-01		
1.5000000e+00	2.6679999e-01		
2.0000000e+00	3.4000000e-01		
2.5000000e+00	4.1080001e-01		
3.0000000e+00	4.7909999e-01		
3.5000000e+00	5.5140001e-01		
4.0000000e+00	6.1220002e-01		
4.5000000e+00	6.5149999e-01		
5.0000000e+00	7.0929998e-01		
5.5000000e+00	7.5029999e-01		
6.0000000e+00	7.5910002e-01		
6.5000000e+00	7.8520000e-01		
7.0000000e+00	8.1830001e-01		
7.5000000e+00	8.7419999e-01		
8.0000000e+00	8.6320001e-01		
8.5000000e+00	8.7709999e-01		
9.0000000e+00	1.1466000e+00		
9.5000000e+00	1.2067000e+00		
1.0000000e+01	1.2466000e+00		
1.0500000e+01	1.2106000e+00		
1.7500000e+01	9.2540002e-01		
1.8000000e+01	9.4639999e-01		
1.8500000e+01	9.4779998e-01		
1.9000000e+01	9.6869999e-01		
1.9500000e+01	6.5799999e-01		
2.0000000e+01	9.9059999e-01		
2.1000000e+01	9.0198487e-01		
2.2000000e+01	8.9000452e-01		
2.3000000e+01	8.8107300e-01		
2.4000000e+01	8.7479454e-01		
2.5000000e+01	8.7079233e-01		
2.6000000e+01	8.6871737e-01		
2.7000000e+01	8.6825210e-01		
2.8000000e+01	8.6911094e-01		
2.9000000e+01	8.7103909e-01		
3.0000000e+01	8.7381005e-01		
3.1000000e+01	8.7722325e-01		
3.2000000e+01	8.8110107e-01		
3.3000000e+01	8.8528651e-01		
3.4000000e+01	8.8964057e-01		
3.5000000e+01	8.9404005e-01		
3.6000000e+01	8.9837587e-01		
3.7000000e+01	9.0255105e-01		
3.8000000e+01	9.0647924e-01		
3.9000000e+01	9.1008377e-01		
4.0000000e+01	9.1329610e-01		
4.1000000e+01	9.1605520e-01		
4.2000000e+01	9.1830653e-01		
4.3000000e+01	9.2000127e-01		
4.4000000e+01	9.2109597e-01		
4.5000000e+01	9.2155176e-01		
4.6000000e+01	9.2133415e-01		
4.7000000e+01	9.2041224e-01		
4.8000000e+01	9.1875899e-01		
4.9000000e+01	9.1635025e-01		
5.0000000e+01	9.1316503e-01		
5.1000000e+01	9.0918499e-01		
5.2000000e+01	9.0439451e-01		
5.3000000e+01	8.9878017e-01		
5.4000000e+01	8.9233094e-01		
5.5000000e+01	8.8503790e-01		
5.6000000e+01	8.7689418e-01		
5.7000000e+01	8.6789483e-01		
5.8000000e+01	8.5803670e-01		
5.9000000e+01	8.4731847e-01		
6.0000000e+01	8.3574057e-01		
6.1000000e+01	8.2330507e-01		
6.2000000e+01	8.1001556e-01		
6.3000000e+01	7.9587728e-01		
6.4000000e+01	7.8089696e-01		
6.5000000e+01	7.6508284e-01		
6.6000000e+01	7.4844456e-01		
6.7000000e+01	7.3099315e-01		
6.8000000e+01	7.1274108e-01		
6.9000000e+01	6.9370210e-01		
7.0000000e+01	6.7389131e-01		
7.1000000e+01	6.5332508e-01		
7.2000000e+01	6.3202113e-01		
7.3000000e+01	6.0999823e-01		
7.4000000e+01	5.8727652e-01		
7.5000000e+01	5.6387722e-01		
7.6000000e+01	5.3982276e-01		
7.7000000e+01	5.1513672e-01		
7.8000000e+01	4.8984364e-01		
7.9000000e+01	4.6396923e-01		
8.0000000e+01	4.3754020e-01		
8.1000000e+01	4.1058427e-01		
8.2000000e+01	3.8313010e-01		
8.3000000e+01	3.5520729e-01		
8.4000000e+01	3.2684639e-01		
8.5000000e+01	2.9807872e-01		
8.6000000e+01	2.6893649e-01		
8.7000000e+01	2.3945266e-01		
8.8000000e+01	2.0966096e-01		
8.9000000e+01	1.7959584e-01		
9.0000000e+01	1.4929235e-01		
9.1000000e+01	1.1878623e-01		
9.2000000e+01	8.8113733e-02		
9.3000000e+01	5.7311673e-02		
9.4000000e+01	2.6417337e-02		
9.5000000e+01	-4.5315544e-03		
9.6000000e+01	-3.5496905e-02		
9.7000000e+01	-6.6440284e-02		
9.8000000e+01	-9.7322986e-02		
9.9000000e+01	-1.2810607e-01		
1.0000000e+02	-1.5875043e-01		
1.0100000e+02	-1.8921685e-01		
1.0200000e+02	-2.1946605e-01		
1.0300000e+02	-2.4945872e-01		
1.0400000e+02	-2.7915564e-01		
1.0500000e+02	-3.0851766e-01		
1.0600000e+02	-3.3750588e-01		
1.0700000e+02	-3.6608151e-01		
1.0800000e+02	-3.9420611e-01		
1.0900000e+02	-4.2783958e-01		
1.1000000e+02	-4.5482790e-01		
1.1100000e+02	-4.8125765e-01		
1.1200000e+02	-5.0709200e-01		
1.1300000e+02	-5.3229475e-01		
1.1400000e+02	-5.5683041e-01		
1.1500000e+02	-5.8066410e-01		
1.1600000e+02	-6.0376179e-01		
1.1700000e+02	-6.2609029e-01		
1.1800000e+02	-6.4761728e-01		
1.1900000e+02	-6.6831136e-01		
1.2000000e+02	-6.8814224e-01		
1.2100000e+02	-7.0708066e-01		
1.2200000e+02	-7.2509837e-01		
1.2300000e+02	-7.4216849e-01		
1.2400000e+02	-7.5826520e-01		
1.2500000e+02	-7.7336407e-01		
1.2600000e+02	-7.8744191e-01		
1.2700000e+02	-8.0047703e-01		
1.2800000e+02	-8.1244904e-01		
1.2900000e+02	-8.2333916e-01		
1.3000000e+02	-8.3313006e-01		
1.3100000e+02	-8.4180599e-01		
1.3200000e+02	-8.4935290e-01		
1.3300000e+02	-8.5575819e-01		
1.3400000e+02	-8.6101121e-01		
1.3500000e+02	-8.6510301e-01		
1.3600000e+02	-8.6802632e-01		
1.3700000e+02	-8.6977577e-01		
1.3800000e+02	-8.7034798e-01		
1.3900000e+02	-8.6974144e-01		
1.4000000e+02	-8.6795658e-01		
1.4100000e+02	-8.6499608e-01		
1.4200000e+02	-8.6086446e-01		
1.4300000e+02	-8.5556877e-01		
1.4400000e+02	-8.4911811e-01		
1.4500000e+02	-8.4152424e-01		
1.4600000e+02	-8.3280128e-01		
1.4700000e+02	-8.2296634e-01		
1.4800000e+02	-8.1203920e-01		
1.4900000e+02	-8.0004323e-01		
1.5000000e+02	-7.8700519e-01		
1.5100000e+02	-7.7295607e-01		
1.5200000e+02	-7.5793171e-01		
1.5300000e+02	-7.4197352e-01		
1.5400000e+02	-7.2512960e-01		
1.5500000e+02	-7.0745665e-01		
1.5600000e+02	-6.8902159e-01		
1.5700000e+02	-6.6990507e-01		
1.5800000e+02	-6.5020531e-01		
1.5900000e+02	-6.3004428e-01		
1.6000000e+02	-6.0957599e-01		
1.6100000e+02	-5.8899951e-01		
1.6200000e+02	-5.6857711e-01		
1.6300000e+02	-5.4866236e-01		
1.6400000e+02	-5.2974272e-01		
1.6500000e+02	-5.1250410e-01		
1.6600000e+02	-4.9793136e-01		
1.6700000e+02	-4.8745894e-01		
1.6800000e+02	-4.8318860e-01		
1.6900000e+02	-4.8815781e-01		
1.7000000e+02	-5.0650746e-01		
1.7100000e+02	-5.4294008e-01		
1.7200000e+02	-5.9973168e-01		
1.7300000e+02	-6.6844308e-01		
1.7400000e+02	-7.1887052e-01		
1.7500000e+02	-7.0737606e-01		
1.7600000e+02	-6.1782211e-01		
1.7700000e+02	-4.7719896e-01		
1.7800000e+02	-3.1915578e-01		
1.7900000e+02	-1.5883285e-01		
1.8000000e+02	1.5140437e-03		
