# Export File Created with QBlade CE v2.0.8.6_beta windows on 14.04.2025 at 14:00:20
E63__(4.25%)_Re0.250_M0.00_N9.0 360 M	E63__(4.25%)_Re0.250_M0.00_N9.0
Angle of Attack [deg]	Drag Coefficient Cd [-]	Angle of Attack [deg]	Drag Coefficient Cd [-]
-1.8000000e+02	6.0000033e-03	-4.0000000e+00	7.1079999e-02
-1.7900000e+02	6.5383408e-03	-3.5000000e+00	6.2160000e-02
-1.7800000e+02	8.1510274e-03	-3.0000000e+00	5.3029999e-02
-1.7700000e+02	1.0833596e-02	-2.5000000e+00	4.6340000e-02
-1.7600000e+02	1.4580285e-02	-2.0000000e+00	3.5270002e-02
-1.7500000e+02	1.9384053e-02	-1.5000000e+00	2.7330000e-02
-1.7400000e+02	2.5236584e-02	-1.0000000e+00	2.2650000e-02
-1.7300000e+02	3.2128312e-02	-5.0000000e-01	1.6780000e-02
-1.7200000e+02	4.0048428e-02	0.0000000e+00	1.4520000e-02
-1.7100000e+02	4.8984904e-02	5.0000000e-01	1.3140000e-02
-1.7000000e+02	5.8924507e-02	1.5000000e+00	1.2300000e-02
-1.6900000e+02	6.9852829e-02	2.0000000e+00	1.1370000e-02
-1.6800000e+02	8.1754282e-02	2.5000000e+00	9.0500005e-03
-1.6700000e+02	9.4612166e-02	3.0000000e+00	8.8200001e-03
-1.6600000e+02	1.0840865e-01	3.5000000e+00	1.0220000e-02
-1.6500000e+02	1.2312482e-01	4.0000000e+00	1.1990000e-02
-1.6400000e+02	1.3874070e-01	4.5000000e+00	1.4100000e-02
-1.6300000e+02	1.5523528e-01	5.0000000e+00	1.7969999e-02
-1.6200000e+02	1.7258655e-01	5.5000000e+00	2.0210000e-02
-1.6100000e+02	1.9077149e-01	6.5000000e+00	2.8899999e-02
-1.6000000e+02	2.0976621e-01	7.0000000e+00	3.5730001e-02
-1.5900000e+02	2.2954585e-01	7.5000000e+00	4.4629999e-02
-1.5800000e+02	2.5008467e-01	8.0000000e+00	5.4740001e-02
-1.5700000e+02	2.7135611e-01	8.5000000e+00	6.4920001e-02
-1.5600000e+02	2.9333276e-01	1.0500000e+01	1.0666000e-01
-1.5500000e+02	3.1598648e-01	1.6000000e+01	2.6945001e-01
-1.5400000e+02	3.3928838e-01	END	END
-1.5300000e+02	3.6320883e-01	END	END
-1.5200000e+02	3.8771757e-01	END	END
-1.5100000e+02	4.1278374e-01	END	END
-1.5000000e+02	4.3837577e-01	END	END
-1.4900000e+02	4.6446171e-01	END	END
-1.4800000e+02	4.9100894e-01	END	END
-1.4700000e+02	5.1798445e-01	END	END
-1.4600000e+02	5.4535484e-01	END	END
-1.4500000e+02	5.7308620e-01	END	END
-1.4400000e+02	6.0114437e-01	END	END
-1.4300000e+02	6.2949479e-01	END	END
-1.4200000e+02	6.5810275e-01	END	END
-1.4100000e+02	6.8693328e-01	END	END
-1.4000000e+02	7.1595109e-01	END	END
-1.3900000e+02	7.4512088e-01	END	END
-1.3800000e+02	7.7440727e-01	END	END
-1.3700000e+02	8.0377471e-01	END	END
-1.3600000e+02	8.3318770e-01	END	END
-1.3500000e+02	8.6261076e-01	END	END
-1.3400000e+02	8.9200842e-01	END	END
-1.3300000e+02	9.2134529e-01	END	END
-1.3200000e+02	9.5058626e-01	END	END
-1.3100000e+02	9.7969633e-01	END	END
-1.3000000e+02	1.0086406e+00	END	END
-1.2900000e+02	1.0373846e+00	END	END
-1.2800000e+02	1.0658940e+00	END	END
-1.2700000e+02	1.0941350e+00	END	END
-1.2600000e+02	1.1220741e+00	END	END
-1.2500000e+02	1.1496781e+00	END	END
-1.2400000e+02	1.1769143e+00	END	END
-1.2300000e+02	1.2037505e+00	END	END
-1.2200000e+02	1.2301551e+00	END	END
-1.2100000e+02	1.2560970e+00	END	END
-1.2000000e+02	1.2815455e+00	END	END
-1.1900000e+02	1.3064709e+00	END	END
-1.1800000e+02	1.3308438e+00	END	END
-1.1700000e+02	1.3546356e+00	END	END
-1.1600000e+02	1.3778185e+00	END	END
-1.1500000e+02	1.4003654e+00	END	END
-1.1400000e+02	1.4222498e+00	END	END
-1.1300000e+02	1.4434463e+00	END	END
-1.1200000e+02	1.4639300e+00	END	END
-1.1100000e+02	1.4836773e+00	END	END
-1.1000000e+02	1.5026650e+00	END	END
-1.0900000e+02	1.5208712e+00	END	END
-1.0800000e+02	1.5382745e+00	END	END
-1.0700000e+02	1.5548548e+00	END	END
-1.0600000e+02	1.5705929e+00	END	END
-1.0500000e+02	1.5854706e+00	END	END
-1.0400000e+02	1.5994704e+00	END	END
-1.0300000e+02	1.6125764e+00	END	END
-1.0200000e+02	1.6247731e+00	END	END
-1.0100000e+02	1.6360468e+00	END	END
-1.0000000e+02	1.6463841e+00	END	END
-9.9000000e+01	1.6557733e+00	END	END
-9.8000000e+01	1.6642033e+00	END	END
-9.7000000e+01	1.6716646e+00	END	END
-9.6000000e+01	1.6781485e+00	END	END
-9.5000000e+01	1.6836474e+00	END	END
-9.4000000e+01	1.6881552e+00	END	END
-9.3000000e+01	1.6916665e+00	END	END
-9.2000000e+01	1.6941773e+00	END	END
-9.1000000e+01	1.6956847e+00	END	END
-9.0000000e+01	1.6961870e+00	END	END
-8.9000000e+01	1.6956836e+00	END	END
-8.8000000e+01	1.6941750e+00	END	END
-8.7000000e+01	1.6916630e+00	END	END
-8.6000000e+01	1.6881506e+00	END	END
-8.5000000e+01	1.6836417e+00	END	END
-8.4000000e+01	1.6781415e+00	END	END
-8.3000000e+01	1.6716565e+00	END	END
-8.2000000e+01	1.6641940e+00	END	END
-8.1000000e+01	1.6557627e+00	END	END
-8.0000000e+01	1.6463722e+00	END	END
-7.9000000e+01	1.6360337e+00	END	END
-7.8000000e+01	1.6247587e+00	END	END
-7.7000000e+01	1.6125605e+00	END	END
-7.6000000e+01	1.5994532e+00	END	END
-7.5000000e+01	1.5854518e+00	END	END
-7.4000000e+01	1.5705727e+00	END	END
-7.3000000e+01	1.5548331e+00	END	END
-7.2000000e+01	1.5382512e+00	END	END
-7.1000000e+01	1.5208462e+00	END	END
-7.0000000e+01	1.5026383e+00	END	END
-6.9000000e+01	1.4836489e+00	END	END
-6.8000000e+01	1.4638997e+00	END	END
-6.7000000e+01	1.4434140e+00	END	END
-6.6000000e+01	1.4222155e+00	END	END
-6.5000000e+01	1.4003289e+00	END	END
-6.4000000e+01	1.3777797e+00	END	END
-6.3000000e+01	1.3545946e+00	END	END
-6.2000000e+01	1.3308003e+00	END	END
-6.1000000e+01	1.3064247e+00	END	END
-6.0000000e+01	1.2814966e+00	END	END
-5.9000000e+01	1.2560452e+00	END	END
-5.8000000e+01	1.2301003e+00	END	END
-5.7000000e+01	1.2036923e+00	END	END
-5.6000000e+01	1.1768526e+00	END	END
-5.5000000e+01	1.1496128e+00	END	END
-5.4000000e+01	1.1220049e+00	END	END
-5.3000000e+01	1.0940616e+00	END	END
-5.2000000e+01	1.0658160e+00	END	END
-5.1000000e+01	1.0373018e+00	END	END
-5.0000000e+01	1.0085527e+00	END	END
-4.9000000e+01	9.7960281e-01	END	END
-4.8000000e+01	9.5048684e-01	END	END
-4.7000000e+01	9.2123944e-01	END	END
-4.6000000e+01	8.9189559e-01	END	END
-4.5000000e+01	8.6249048e-01	END	END
-4.4000000e+01	8.3305931e-01	END	END
-4.3000000e+01	8.0363744e-01	END	END
-4.2000000e+01	7.7426034e-01	END	END
-4.1000000e+01	7.4496347e-01	END	END
-4.0000000e+01	7.1578211e-01	END	END
-3.9000000e+01	6.8675166e-01	END	END
-3.8000000e+01	6.5790725e-01	END	END
-3.7000000e+01	6.2928391e-01	END	END
-3.6000000e+01	6.0091645e-01	END	END
-3.5000000e+01	5.7283932e-01	END	END
-3.4000000e+01	5.4508686e-01	END	END
-3.3000000e+01	5.1769286e-01	END	END
-3.2000000e+01	4.9069071e-01	END	END
-3.1000000e+01	4.6411344e-01	END	END
-3.0000000e+01	4.3799341e-01	END	END
-2.9000000e+01	4.1236246e-01	END	END
-2.8000000e+01	3.8725165e-01	END	END
-2.7000000e+01	3.6269134e-01	END	END
-2.6000000e+01	3.3871099e-01	END	END
-2.5000000e+01	3.1533894e-01	END	END
-2.4000000e+01	2.9260245e-01	END	END
-2.3000000e+01	2.7052721e-01	END	END
-2.2000000e+01	2.4913730e-01	END	END
-2.1000000e+01	2.2845447e-01	END	END
-2.0000000e+01	2.0849769e-01	END	END
-1.9000000e+01	1.8928210e-01	END	END
-1.8000000e+01	1.7081760e-01	END	END
-1.7000000e+01	1.5310656e-01	END	END
-1.6000000e+01	1.3614020e-01	END	END
-1.5000000e+01	1.1989288e-01	END	END
-1.4000000e+01	1.0431304e-01	END	END
-1.3000000e+01	8.9309871e-02	END	END
-1.2000000e+01	7.4738614e-02	END	END
-1.1000000e+01	6.0405541e-02	END	END
-1.0000000e+01	4.6183046e-02	END	END
-9.0000000e+00	3.2475483e-02	END	END
-8.0000000e+00	2.1067241e-02	END	END
-7.0000000e+00	1.4445587e-02	END	END
-6.0000000e+00	1.2343263e-02	END	END
-5.0000000e+00	1.2067568e-02	END	END
-4.0000000e+00	7.1079999e-02	END	END
-3.5000000e+00	6.2160000e-02	END	END
-3.0000000e+00	5.3029999e-02	END	END
-2.5000000e+00	4.6340000e-02	END	END
-2.0000000e+00	3.5270002e-02	END	END
-1.5000000e+00	2.7330000e-02	END	END
-1.0000000e+00	2.2650000e-02	END	END
-5.0000000e-01	1.6780000e-02	END	END
0.0000000e+00	1.4520000e-02	END	END
5.0000000e-01	1.3140000e-02	END	END
1.5000000e+00	1.2300000e-02	END	END
2.0000000e+00	1.1370000e-02	END	END
2.5000000e+00	9.0500005e-03	END	END
3.0000000e+00	8.8200001e-03	END	END
3.5000000e+00	1.0220000e-02	END	END
4.0000000e+00	1.1990000e-02	END	END
4.5000000e+00	1.4100000e-02	END	END
5.0000000e+00	1.7969999e-02	END	END
5.5000000e+00	2.0210000e-02	END	END
6.5000000e+00	2.8899999e-02	END	END
7.0000000e+00	3.5730001e-02	END	END
7.5000000e+00	4.4629999e-02	END	END
8.0000000e+00	5.4740001e-02	END	END
8.5000000e+00	6.4920001e-02	END	END
1.0500000e+01	1.0666000e-01	END	END
1.6000000e+01	2.6945001e-01	END	END
1.7000000e+01	1.5451644e-01	END	END
1.8000000e+01	1.7310335e-01	END	END
1.9000000e+01	1.9252191e-01	END	END
2.0000000e+01	2.1276443e-01	END	END
2.1000000e+01	2.3381950e-01	END	END
2.2000000e+01	2.5567251e-01	END	END
2.3000000e+01	2.7830607e-01	END	END
2.4000000e+01	3.0170032e-01	END	END
2.5000000e+01	3.2583323e-01	END	END
2.6000000e+01	3.5068095e-01	END	END
2.7000000e+01	3.7621781e-01	END	END
2.8000000e+01	4.0241680e-01	END	END
2.9000000e+01	4.2924938e-01	END	END
3.0000000e+01	4.5668587e-01	END	END
3.1000000e+01	4.8469540e-01	END	END
3.2000000e+01	5.1324606e-01	END	END
3.3000000e+01	5.4230505e-01	END	END
3.4000000e+01	5.7183850e-01	END	END
3.5000000e+01	6.0181195e-01	END	END
3.6000000e+01	6.3219005e-01	END	END
3.7000000e+01	6.6293675e-01	END	END
3.8000000e+01	6.9401550e-01	END	END
3.9000000e+01	7.2538906e-01	END	END
4.0000000e+01	7.5701976e-01	END	END
4.1000000e+01	7.8886944e-01	END	END
4.2000000e+01	8.2089955e-01	END	END
4.3000000e+01	8.5307115e-01	END	END
4.4000000e+01	8.8534516e-01	END	END
4.5000000e+01	9.1768217e-01	END	END
4.6000000e+01	9.5004255e-01	END	END
4.7000000e+01	9.8238659e-01	END	END
4.8000000e+01	1.0146745e+00	END	END
4.9000000e+01	1.0468668e+00	END	END
5.0000000e+01	1.0789233e+00	END	END
5.1000000e+01	1.1108047e+00	END	END
5.2000000e+01	1.1424713e+00	END	END
5.3000000e+01	1.1738839e+00	END	END
5.4000000e+01	1.2050035e+00	END	END
5.5000000e+01	1.2357912e+00	END	END
5.6000000e+01	1.2662088e+00	END	END
5.7000000e+01	1.2962182e+00	END	END
5.8000000e+01	1.3257819e+00	END	END
5.9000000e+01	1.3548630e+00	END	END
6.0000000e+01	1.3834251e+00	END	END
6.1000000e+01	1.4114321e+00	END	END
6.2000000e+01	1.4388492e+00	END	END
6.3000000e+01	1.4656416e+00	END	END
6.4000000e+01	1.4917758e+00	END	END
6.5000000e+01	1.5172187e+00	END	END
6.6000000e+01	1.5419384e+00	END	END
6.7000000e+01	1.5659037e+00	END	END
6.8000000e+01	1.5890841e+00	END	END
6.9000000e+01	1.6114506e+00	END	END
7.0000000e+01	1.6329747e+00	END	END
7.1000000e+01	1.6536293e+00	END	END
7.2000000e+01	1.6733881e+00	END	END
7.3000000e+01	1.6922263e+00	END	END
7.4000000e+01	1.7101197e+00	END	END
7.5000000e+01	1.7270458e+00	END	END
7.6000000e+01	1.7429831e+00	END	END
7.7000000e+01	1.7579113e+00	END	END
7.8000000e+01	1.7718114e+00	END	END
7.9000000e+01	1.7846658e+00	END	END
8.0000000e+01	1.7964582e+00	END	END
8.1000000e+01	1.8071735e+00	END	END
8.2000000e+01	1.8167981e+00	END	END
8.3000000e+01	1.8253198e+00	END	END
8.4000000e+01	1.8327277e+00	END	END
8.5000000e+01	1.8390124e+00	END	END
8.6000000e+01	1.8441658e+00	END	END
8.7000000e+01	1.8481815e+00	END	END
8.8000000e+01	1.8510543e+00	END	END
8.9000000e+01	1.8527806e+00	END	END
9.0000000e+01	1.8533581e+00	END	END
9.1000000e+01	1.8527863e+00	END	END
9.2000000e+01	1.8510656e+00	END	END
9.3000000e+01	1.8481985e+00	END	END
9.4000000e+01	1.8441885e+00	END	END
9.5000000e+01	1.8390408e+00	END	END
9.6000000e+01	1.8327619e+00	END	END
9.7000000e+01	1.8253598e+00	END	END
9.8000000e+01	1.8168441e+00	END	END
9.9000000e+01	1.8072255e+00	END	END
1.0000000e+02	1.7965163e+00	END	END
1.0100000e+02	1.7847302e+00	END	END
1.0200000e+02	1.7718822e+00	END	END
1.0300000e+02	1.7579886e+00	END	END
1.0400000e+02	1.7430670e+00	END	END
1.0500000e+02	1.7271366e+00	END	END
1.0600000e+02	1.7102176e+00	END	END
1.0700000e+02	1.6923313e+00	END	END
1.0800000e+02	1.6735007e+00	END	END
1.0900000e+02	1.6537495e+00	END	END
1.1000000e+02	1.6331029e+00	END	END
1.1100000e+02	1.6115869e+00	END	END
1.1200000e+02	1.5892290e+00	END	END
1.1300000e+02	1.5660574e+00	END	END
1.1400000e+02	1.5421014e+00	END	END
1.1500000e+02	1.5173912e+00	END	END
1.1600000e+02	1.4919583e+00	END	END
1.1700000e+02	1.4658345e+00	END	END
1.1800000e+02	1.4390529e+00	END	END
1.1900000e+02	1.4116473e+00	END	END
1.2000000e+02	1.3836521e+00	END	END
1.2100000e+02	1.3551027e+00	END	END
1.2200000e+02	1.3260345e+00	END	END
1.2300000e+02	1.2964846e+00	END	END
1.2400000e+02	1.2664897e+00	END	END
1.2500000e+02	1.2360874e+00	END	END
1.2600000e+02	1.2053158e+00	END	END
1.2700000e+02	1.1742134e+00	END	END
1.2800000e+02	1.1428188e+00	END	END
1.2900000e+02	1.1111714e+00	END	END
1.3000000e+02	1.0793103e+00	END	END
1.3100000e+02	1.0472753e+00	END	END
1.3200000e+02	1.0151061e+00	END	END
1.3300000e+02	9.8284256e-01	END	END
1.3400000e+02	9.5052457e-01	END	END
1.3500000e+02	9.1819215e-01	END	END
1.3600000e+02	8.8588506e-01	END	END
1.3700000e+02	8.5364312e-01	END	END
1.3800000e+02	8.2150590e-01	END	END
1.3900000e+02	7.8951293e-01	END	END
1.4000000e+02	7.5770324e-01	END	END
1.4100000e+02	7.2611576e-01	END	END
1.4200000e+02	6.9478899e-01	END	END
1.4300000e+02	6.6376102e-01	END	END
1.4400000e+02	6.3306952e-01	END	END
1.4500000e+02	6.0275167e-01	END	END
1.4600000e+02	5.7284409e-01	END	END
1.4700000e+02	5.4338270e-01	END	END
1.4800000e+02	5.1440305e-01	END	END
1.4900000e+02	4.8593980e-01	END	END
1.5000000e+02	4.5802692e-01	END	END
1.5100000e+02	4.3069768e-01	END	END
1.5200000e+02	4.0398452e-01	END	END
1.5300000e+02	3.7791902e-01	END	END
1.5400000e+02	3.5253188e-01	END	END
1.5500000e+02	3.2785296e-01	END	END
1.5600000e+02	3.0391106e-01	END	END
1.5700000e+02	2.8073409e-01	END	END
1.5800000e+02	2.5834888e-01	END	END
1.5900000e+02	2.3678125e-01	END	END
1.6000000e+02	2.1605591e-01	END	END
1.6100000e+02	1.9619650e-01	END	END
1.6200000e+02	1.7722550e-01	END	END
1.6300000e+02	1.5916423e-01	END	END
1.6400000e+02	1.4203289e-01	END	END
1.6500000e+02	1.2585039e-01	END	END
1.6600000e+02	1.1063449e-01	END	END
1.6700000e+02	9.6401662e-02	END	END
1.6800000e+02	8.3167151e-02	END	END
1.6900000e+02	7.0944920e-02	END	END
1.7000000e+02	5.9747644e-02	END	END
1.7100000e+02	4.9586710e-02	END	END
1.7200000e+02	4.0472195e-02	END	END
1.7300000e+02	3.2412849e-02	END	END
1.7400000e+02	2.5416126e-02	END	END
1.7500000e+02	1.9488132e-02	END	END
1.7600000e+02	1.4633651e-02	END	END
1.7700000e+02	1.0856139e-02	END	END
1.7800000e+02	8.1577208e-03	END	END
1.7900000e+02	6.5391897e-03	END	END
1.8000000e+02	6.0000173e-03	END	END
